XS Dir: /cloud/Code/python/neutrons/z

============================================================================
TARGET
============================================================================
Height:            0.07              
Width:             0.02              
Depth:             0.015             

Volume:            2.1e-05           
Density:           8000              
Mass:              0.168             



============================================================================
Neutron Flux
============================================================================
100000.0           51914742780.3     
621052.631579      1.91052013377e+12 
1142105.26316      5.76015121439e+12 
1663157.89474      1.01750864552e+13 
2184210.52632      1.36594236586e+13 
2705263.15789      1.52390316852e+13 
3226315.78947      1.47288808353e+13 
3747368.42105      1.26167984487e+13 
4268421.05263      9.71167137471e+12 
4789473.68421      6.7783011408e+12  
5310526.31579      4.31647197295e+12 
5831578.94737      2.51916924122e+12 
6352631.57895      1.35190541893e+12 
6873684.21053      668797714331.0    
7394736.84211      305604993094.0    
7915789.47368      129189005094.0    
8436842.10526      50587325936.5     
8957894.73684      18367975871.2     
9478947.36842      6189560864.62     
10000000.0         1937102273.71     

====================================================================================================================================
REACTION RATES
====================================================================================================================================
Protons                  Nucleons                 Reaction Rate            Number Density           Stability                Half-Life                
6 C                      12                       -1.59410620477e+12       3.971799859668158e+26    Stable                                            
6 C                      13                       1.58004453542e+12        3.9643223146776385e+24   Stable                                            
6 C                      14                       14061669353.8            0.0                      Unstable                 179878320000.0           
14 Si                    28                       -8.05372678361e+12       1.588107279016769e+27    Stable                                            
14 Si                    29                       7.75255981668e+12        7.789406010458302e+25    Stable                                            
14 Si                    30                       107463267494.0           4.969797644405235e+25    Stable                                            
14 Si                    31                       193708090607.0           0.0                      Unstable                 9438.0                   
14 Si                    32                       1.2748581439e-11         0.0                      Unstable                 4828312800.0             
15 P                     31                       -370905903175.0          6.999373194362531e+25    Stable                                            
15 P                     32                       370901568348.0           0.0                      Unstable                 1232323.2                
16 S                     32                       -112843491624.0          2.147034231553909e+25    Stable                                            
16 S                     33                       112023325574.0           1.643822616807744e+23    Stable                                            
16 S                     34                       -4426643245.44           9.041750228216158e+23    Stable                                            
16 S                     35                       5246752945.89            0.0                      Unstable                 7548768.0                
16 S                     36                       -12609650.8356           2.0092161608214632e+21   Stable                                            
16 S                     37                       12609650.8356            0.0                      Unstable                 303.0                    
20 Ca                    42                       3.24781576178e-05        0.0                      Stable                                            
20 Ca                    43                       7.79279851138e-08        0.0                      Stable                                            
20 Ca                    44                       6.73601823418e-09        0.0                      Stable                                            
22 Ti                    46                       -180576502853.0          3.4597457314727033e+25   Stable                                            
22 Ti                    47                       39077800015.5            3.053666850785127e+25    Stable                                            
22 Ti                    48                       -1.27163921671e+12       2.9628928083490116e+26   Stable                                            
22 Ti                    49                       1.30680169975e+12        2.1299239152811284e+25   Stable                                            
22 Ti                    50                       -9660609098.19           1.9986657938499304e+25   Stable                                            
22 Ti                    51                       115996828900.0           0.0                      Unstable                 345.6                    
23 V                     49                       1.05330917131e-08        0.0                      Unstable                 28512000.0               
23 V                     51                       0.000111325661627        0.0                      Stable                                            
24 Cr                    50                       -4.25334029598e+12       7.96311336095388e+26     Stable                                            
24 Cr                    51                       4.25334029598e+12        0.0                      Unstable                 2393366.4                
24 Cr                    52                       -8.12632692718e+13       1.4766413415816245e+28   Stable                                            
24 Cr                    53                       7.2371149051e+13         1.6427605240397847e+27   Stable                                            
24 Cr                    54                       6.77104772806e+12        4.013501424682156e+26    Stable                                            
24 Cr                    55                       2.1210729944e+12         0.0                      Unstable                 209.82                   
25 Mn                    53                       16168.6914514            0.0                      Unstable                 116763120000000.0        
25 Mn                    55                       -9.23482313466e+12       1.75386998824805e+27     Stable                                            
25 Mn                    56                       9.23482263303e+12        0.0                      Unstable                 9284.04                  
26 Fe                    54                       -1.82637443363e+13       3.4163362197979664e+27   Stable                                            
26 Fe                    55                       1.82637443202e+13        0.0                      Unstable                 86594054.4               
26 Fe                    56                       -2.10017925857e+14       5.171609707996004e+28    Stable                                            
26 Fe                    57                       2.05012466772e+14        1.1733633501309257e+27   Stable                                            
26 Fe                    58                       4.17362423118e+12        1.5346343549108522e+26   Stable                                            
26 Fe                    59                       831834853304.0           0.0                      Unstable                 3844368.0                
26 Fe                    60                       5.54646889047e-11        0.0                      Unstable                 82680912000000.0         
27 Co                    57                       5773757.17477            0.0                      Unstable                 23478336.0               
27 Co                    59                       1.17754461485e-05        0.0                      Stable                                            
28 Ni                    58                       -3.40107042903e+13       6.793266779669771e+27    Stable                                            
28 Ni                    59                       3.40106985165e+13        0.0                      Unstable                 3187317600000.0          
28 Ni                    60                       -1.33441059992e+13       2.529613914020021e+27    Stable                                            
28 Ni                    61                       1.28719837853e+13        1.0815581914388184e+26   Stable                                            
28 Ni                    62                       -1.30045925176e+12       3.393040042272874e+26    Stable                                            
28 Ni                    63                       1.77258151953e+12        0.0                      Unstable                 3193629120.0             
28 Ni                    64                       -437244750424.0          8.369651403658306e+25    Stable                                            
28 Ni                    65                       437244696437.0           0.0                      Unstable                 9063.0                   



====================================================================================================================================
ISOTOPE AMOUNTS
====================================================================================================================================
Protons                  Nucleons                 Atoms Start              Atoms Irradiated         Atoms Cooled             
6 C                      12                       8.340779705303131e+21    8.34083709313e+21        8.34083709313e+21        
6 C                      13                       8.32507686082304e+19     8.3193887005e+19         8.3193887005e+19         
6 C                      14                       0.0                      5.06220061547e+14        5.06220054525e+14        
7 N                      14                       0.0                      1.01244015845e+15        7022447.28296            
14 Si                    28                       3.335025285935215e+22    3.33505427935e+22        3.33505427935e+22        
14 Si                    29                       1.6357752621962436e+21   1.63549617004e+21        1.63549617004e+21        
14 Si                    30                       1.0436575053250994e+21   1.04365363665e+21        1.04365363665e+21        
14 Si                    31                       0.0                      2.45007595316e+15        1.88085642995e+15        
14 Si                    32                       0.0                      4.58947745853e-07        4.58947508663e-07        
15 P                     31                       1.4698683708161317e+21   1.469891147e+21          1.46989171622e+21        
15 P                     32                       0.0                      1.32181774561e+16        1.3191439064e+16         
16 S                     32                       4.508771886263209e+20    4.50907821626e+20        4.50907848364e+20        
16 S                     33                       3.452027495296262e+18    3.44799465558e+18        3.44799465558e+18        
16 S                     34                       1.8987675479253934e+19   1.89878348384e+19        1.89878348384e+19        
16 S                     35                       0.0                      1.88571262622e+14        1.88508938579e+14        
16 S                     36                       4.219353937725073e+16    4.21939933247e+16        4.21939933247e+16        
16 S                     37                       0.0                      5512139860.55            1461255.70786            
17 Cl                    35                       0.0                      3.77454368674e+14        62324042369.5            
17 Cl                    37                       0.0                      459459569943.0           5510678604.85            
20 Ca                    42                       0.0                      1.16921367424            1.16921367424            
20 Ca                    43                       0.0                      0.0028054074641          0.0028054074641          
20 Ca                    44                       0.0                      0.00024249665643         0.00024249665643         
22 Ti                    46                       7.265466036092678e+20    7.26553104363e+20        7.26553104363e+20        
22 Ti                    47                       6.412700386648768e+20    6.41268631864e+20        6.41268631864e+20        
22 Ti                    48                       6.222074897532925e+21    6.22212067654e+21        6.22212067654e+21        
22 Ti                    49                       4.47284022209037e+20     4.47236977348e+20        4.47236977348e+20        
22 Ti                    50                       4.197198167084854e+20    4.1972016449e+20         4.1972016449e+20         
22 Ti                    51                       0.0                      5.78354860152e+13        42312166987.9            
23 V                     49                       0.0                      0.00037902541864         0.000378992248324        
23 V                     51                       0.0                      3.09678771702e+17        3.09895296335e+17        
24 Cr                    50                       1.6722538058003148e+22   1.67226911783e+22        1.67226911783e+22        
24 Cr                    51                       0.0                      1.5232479972e+17         1.52166068261e+17        
24 Cr                    52                       3.100946817321411e+23    3.1009760721e+23         3.1009760721e+23         
24 Cr                    53                       3.449797100483548e+22    3.44953656435e+22        3.44953656435e+22        
24 Cr                    54                       8.428352991832528e+21    8.42810923411e+21        8.42810923411e+21        
24 Cr                    55                       0.0                      6.42062101911e+14        4391731011.94            
25 Mn                    53                       0.0                      582072892.249            582072892.237            
25 Mn                    55                       3.6831269753209053e+22   3.68329941024e+22        3.68329947634e+22        
25 Mn                    56                       0.0                      1.15276465467e+17        8.81074417184e+16        
26 Fe                    54                       7.17430606157573e+22     7.17437181106e+22        7.17437181106e+22        
26 Fe                    55                       0.0                      6.57400071425e+17        6.57381127787e+17        
26 Fe                    56                       1.0860380386791611e+24   1.08604604705e+24        1.08604607422e+24        
26 Fe                    57                       2.464063035274944e+22    2.46332499044e+22        2.46332499044e+22        
26 Fe                    58                       3.22273214531279e+21     3.22258189484e+21        3.22258189484e+21        
26 Fe                    59                       0.0                      2.98490766606e+16        2.98297082952e+16        
26 Fe                    60                       0.0                      1.99672880057e-06        1.99672880051e-06        
27 Co                    57                       0.0                      207744840814.0           207722762403.0           
27 Co                    59                       0.0                      2.50856541568e+18        2.508584785e+18          
27 Co                    60                       0.0                      3.02293206184e-16        3.62549975998e-16        
28 Ni                    58                       1.4265860237306521e+23   1.42659826758e+23        1.42659826758e+23        
28 Ni                    59                       0.0                      1.22438514659e+18        1.22438514563e+18        
28 Ni                    60                       5.312189219442044e+22    5.31223725822e+22        5.31223725822e+22        
28 Ni                    61                       2.2712722020215184e+21   2.27080881061e+21        2.27080881061e+21        
28 Ni                    62                       7.125384088773035e+21    7.12543090531e+21        7.12543090531e+21        
28 Ni                    63                       0.0                      6.38126854034e+16        6.38126355436e+16        
28 Ni                    64                       1.7576267947682444e+21   1.75764253558e+21        1.75764253558e+21        
28 Ni                    65                       0.0                      5.35276961141e+15        4.06446677595e+15        
29 Cu                    63                       0.0                      1.27625620107e+17        49859777229.7            
29 Cu                    65                       0.0                      2.10935786831e+16        1.28830283546e+15        



====================================================================================================================================
ISOTOPE ACTIVITIES
====================================================================================================================================
Protons                  Nucleons                 Activity Irradiated      Activity Cooled          
6 C                      14                       1950.67981736            1950.6797903             
14 Si                    31                       179938889499.0           138134173708.0           
14 Si                    32                       6.588602463e-17          6.58859905793e-17        
15 P                     32                       7434853483.13            7419813888.71            
16 S                     35                       17315095.5256            17309372.7727            
16 S                     37                       12609650.8356            3342.7896831             
22 Ti                    51                       115996828900.0           84862729.3144            
23 V                     49                       9.21437992043e-12        9.21357352624e-12        
24 Cr                    51                       44115061302.5            44069090796.9            
24 Cr                    55                       2.1210729944e+12         14508225.9494            
25 Mn                    53                       3.45539057318e-06        3.45539057311e-06        
25 Mn                    56                       8.6065502759e+12         6.57810875583e+12        
26 Fe                    55                       5262197377.93            5262045742.47            
26 Fe                    59                       5381847765.25            5378355610.53            
26 Fe                    60                       1.67393767797e-20        1.67393767792e-20        
27 Co                    57                       6133.21790293            6132.5660855             
27 Co                    60                       1.25962243226e-24        1.51070574277e-24        
28 Ni                    59                       266267.507286            266267.507077            
28 Ni                    63                       13849943.5311            13849932.7095            
