XS Dir: /cloud/Code/python/neutrons/z

============================================================================
TARGET
============================================================================
Height:            0.07              
Width:             0.02              
Depth:             0.015             

Volume:            2.1e-05           
Density:           8000              
Mass:              0.168             



============================================================================
Neutron Flux
============================================================================
100000.0           12978.6856951     
621052.631579      477630.033442     
1142105.26316      1440037.8036      
1663157.89474      2543771.6138      
2184210.52632      3414855.91465     
2705263.15789      3809757.9213      
3226315.78947      3682220.20883     
3747368.42105      3154199.61217     
4268421.05263      2427917.84368     
4789473.68421      1694575.2852      
5310526.31579      1079117.99324     
5831578.94737      629792.310304     
6352631.57895      337976.354733     
6873684.21053      167199.428583     
7394736.84211      76401.2482734     
7915789.47368      32297.2512736     
8436842.10526      12646.8314841     
8957894.73684      4591.9939678      
9478947.36842      1547.39021615     
10000000.0         484.275568428     

====================================================================================================================================
REACTION RATES
====================================================================================================================================
Protons                  Nucleons                 Reaction Rate            Number Density           Stability                Half-Life                
6 C                      12                       -398526.551192           3.971799859668158e+26    Stable                                            
6 C                      13                       395011.133854            3.9643223146776385e+24   Stable                                            
6 C                      14                       3515.41733844            0.0                      Unstable                 179878320000.0           
14 Si                    28                       -2013431.6959            1.588107279016769e+27    Stable                                            
14 Si                    29                       1938139.95417            7.789406010458302e+25    Stable                                            
14 Si                    30                       26865.8168734            4.969797644405235e+25    Stable                                            
14 Si                    31                       48427.0226518            0.0                      Unstable                 9438.0                   
14 Si                    32                       3.18714535975e-18        0.0                      Unstable                 4828312800.0             
15 P                     31                       -92726.4757938           6.999373194362531e+25    Stable                                            
15 P                     32                       92725.3920871            0.0                      Unstable                 1232323.2                
16 S                     32                       -28210.872906            2.147034231553909e+25    Stable                                            
16 S                     33                       28005.8313934            1.643822616807744e+23    Stable                                            
16 S                     34                       -1106.66081136           9.041750228216158e+23    Stable                                            
16 S                     35                       1311.68823647            0.0                      Unstable                 7548768.0                
16 S                     36                       -3.15241270891           2.0092161608214632e+21   Stable                                            
16 S                     37                       3.15241270891            0.0                      Unstable                 303.0                    
20 Ca                    42                       8.11953940444e-12        0.0                      Stable                                            
20 Ca                    43                       1.94819962785e-14        0.0                      Stable                                            
20 Ca                    44                       1.68400455854e-15        0.0                      Stable                                            
22 Ti                    46                       -45144.1257132           3.4597457314727033e+25   Stable                                            
22 Ti                    47                       9769.45000387            3.053666850785127e+25    Stable                                            
22 Ti                    48                       -317909.804178           2.9628928083490116e+26   Stable                                            
22 Ti                    49                       326700.424937            2.1299239152811284e+25   Stable                                            
22 Ti                    50                       -2415.15227455           1.9986657938499304e+25   Stable                                            
22 Ti                    51                       28999.2072249            0.0                      Unstable                 345.6                    
23 V                     49                       2.63327292828e-15        0.0                      Unstable                 28512000.0               
23 V                     51                       2.78314154066e-11        0.0                      Stable                                            
24 Cr                    50                       -1063335.07399           7.96311336095388e+26     Stable                                            
24 Cr                    51                       1063335.07399            0.0                      Unstable                 2393366.4                
24 Cr                    52                       -20315817.318            1.4766413415816245e+28   Stable                                            
24 Cr                    53                       18092787.2628            1.6427605240397847e+27   Stable                                            
24 Cr                    54                       1692761.93201            4.013501424682156e+26    Stable                                            
24 Cr                    55                       530268.248599            0.0                      Unstable                 209.82                   
25 Mn                    53                       0.00404217286284         0.0                      Unstable                 116763120000000.0        
25 Mn                    55                       -2308705.78366           1.75386998824805e+27     Stable                                            
25 Mn                    56                       2308705.65826            0.0                      Unstable                 9284.04                  
26 Fe                    54                       -4565936.08407           3.4163362197979664e+27   Stable                                            
26 Fe                    55                       4565936.08004            0.0                      Unstable                 86594054.4               
26 Fe                    56                       -52504481.4641           5.171609707996004e+28    Stable                                            
26 Fe                    57                       51253116.693             1.1733633501309257e+27   Stable                                            
26 Fe                    58                       1043406.05779            1.5346343549108522e+26   Stable                                            
26 Fe                    59                       207958.713326            0.0                      Unstable                 3844368.0                
26 Fe                    60                       1.38661722262e-17        0.0                      Unstable                 82680912000000.0         
27 Co                    57                       1.44343929369            0.0                      Unstable                 23478336.0               
27 Co                    59                       2.94386153713e-12        0.0                      Stable                                            
28 Ni                    58                       -8502676.07257           6.793266779669771e+27    Stable                                            
28 Ni                    59                       8502674.62912            0.0                      Unstable                 3187317600000.0          
28 Ni                    60                       -3336026.4998            2.529613914020021e+27    Stable                                            
28 Ni                    61                       3217995.94634            1.0815581914388184e+26   Stable                                            
28 Ni                    62                       -325114.812941           3.393040042272874e+26    Stable                                            
28 Ni                    63                       443145.379882            0.0                      Unstable                 3193629120.0             
28 Ni                    64                       -109311.187606           8.369651403658306e+25    Stable                                            
28 Ni                    65                       109311.174109            0.0                      Unstable                 9063.0                   



====================================================================================================================================
ISOTOPE AMOUNTS
====================================================================================================================================
Protons                  Nucleons                 Atoms Start              Atoms Irradiated         Atoms Cooled             
6 C                      12                       8.340779705303131e+21    8.34077970532e+21        8.34077970532e+21        
6 C                      13                       8.32507686082304e+19     8.3250768594e+19         8.3250768594e+19         
6 C                      14                       0.0                      126555015.387            126555015.094            
7 N                      14                       0.0                      253110039.611            0.292601972604           
14 Si                    28                       3.335025285935215e+22    3.33502528594e+22        3.33502528594e+22        
14 Si                    29                       1.6357752621962436e+21   1.63577526213e+21        1.63577526213e+21        
14 Si                    30                       1.0436575053250994e+21   1.04365750532e+21        1.04365750532e+21        
14 Si                    31                       0.0                      612518988.291            586114194.935            
14 Si                    32                       0.0                      1.14736936463e-13        1.1473692658e-13         
15 P                     31                       1.4698683708161317e+21   1.46986837082e+21        1.46986837082e+21        
15 P                     32                       0.0                      3304544364.03            3303429324.18            
16 S                     32                       4.508771886263209e+20    4.50877188634e+20        4.50877188634e+20        
16 S                     33                       3.452027495296262e+18    3.45202749429e+18        3.45202749429e+18        
16 S                     34                       1.8987675479253934e+19   1.89876754793e+19        1.89876754793e+19        
16 S                     35                       0.0                      47142815.6554            47140218.4627            
16 S                     36                       4.219353937725073e+16    4.21935393774e+16        4.21935393774e+16        
16 S                     37                       0.0                      1378.03496514            349.269961105            
17 Cl                    35                       0.0                      94363592.1685            2597.19278392            
17 Cl                    37                       0.0                      114864.892486            1028.76500403            
20 Ca                    42                       0.0                      2.9230341856e-07         2.9230341856e-07         
20 Ca                    43                       0.0                      7.01351866024e-10        7.01351866024e-10        
20 Ca                    44                       0.0                      6.06241641076e-11        6.06241641076e-11        
22 Ti                    46                       7.265466036092678e+20    7.26546603611e+20        7.26546603611e+20        
22 Ti                    47                       6.412700386648768e+20    6.41270038665e+20        6.41270038665e+20        
22 Ti                    48                       6.222074897532925e+21    6.22207489754e+21        6.22207489754e+21        
22 Ti                    49                       4.47284022209037e+20     4.47284022197e+20        4.47284022197e+20        
22 Ti                    50                       4.197198167084854e+20    4.19719816709e+20        4.19719816709e+20        
22 Ti                    51                       0.0                      14458871.5038            4340231.33317            
23 V                     49                       0.0                      9.47563546601e-11        9.47549725132e-11        
23 V                     51                       0.0                      77419692925.4            77436428249.9            
24 Cr                    50                       1.6722538058003148e+22   1.6722538058e+22         1.6722538058e+22         
24 Cr                    51                       0.0                      38081199930.0            38074583245.7            
24 Cr                    52                       3.100946817321411e+23    3.10094681733e+23        3.10094681733e+23        
24 Cr                    53                       3.449797100483548e+22    3.44979710042e+22        3.44979710042e+22        
24 Cr                    54                       8.428352991832528e+21    8.42835299177e+21        8.42835299177e+21        
24 Cr                    55                       0.0                      160515525.478            22115333.5649            
25 Mn                    53                       0.0                      145.518223062            145.518223062            
25 Mn                    55                       3.6831269753209053e+22   3.68312697536e+22        3.68312697536e+22        
25 Mn                    56                       0.0                      28819116366.8            27556622310.1            
26 Fe                    54                       7.17430606157573e+22     7.17430606159e+22        7.17430606159e+22        
26 Fe                    55                       0.0                      164350017856.0           164349228528.0           
26 Fe                    56                       1.0860380386791611e+24   1.08603803868e+24        1.08603803868e+24        
26 Fe                    57                       2.464063035274944e+22    2.46406303509e+22        2.46406303509e+22        
26 Fe                    58                       3.22273214531279e+21     3.22273214528e+21        3.22273214528e+21        
26 Fe                    59                       0.0                      7462269165.14            7461461931.64            
26 Fe                    60                       0.0                      4.99182200142e-13        4.99182200139e-13        
27 Co                    57                       0.0                      51936.2102035            51935.290229             
27 Co                    59                       0.0                      627141353919.0           627142161193.0           
27 Co                    60                       0.0                      7.55733015459e-23        7.80840159808e-23        
28 Ni                    58                       1.4265860237306521e+23   1.42658602373e+23        1.42658602373e+23        
28 Ni                    59                       0.0                      306096286648.0           306096286608.0           
28 Ni                    60                       5.312189219442044e+22    5.31218921945e+22        5.31218921945e+22        
28 Ni                    61                       2.2712722020215184e+21   2.27127220191e+21        2.27127220191e+21        
28 Ni                    62                       7.125384088773035e+21    7.12538408878e+21        7.12538408878e+21        
28 Ni                    63                       0.0                      15953171350.8            15953169273.4            
28 Ni                    64                       1.7576267947682444e+21   1.75762679477e+21        1.75762679477e+21        
28 Ni                    65                       0.0                      1338192402.85            1278172289.03            
29 Cu                    63                       0.0                      31906405026.8            2077.49139428            
29 Cu                    65                       0.0                      5273394670.78            60020113.8217            



====================================================================================================================================
ISOTOPE ACTIVITIES
====================================================================================================================================
Protons                  Nucleons                 Activity Irradiated      Activity Cooled          
6 C                      14                       0.00048766995434         0.000487669953212        
14 Si                    31                       44984.7223748            43045.497108             
14 Si                    32                       1.64715061575e-23        1.64715047387e-23        
15 P                     32                       1858.71337078            1858.08619219            
16 S                     35                       4.32877388141            4.32853540053            
16 S                     37                       3.15241270891            0.798995012522           
22 Ti                    51                       28999.2072249            8704.91641078            
23 V                     49                       2.30359498011e-18        2.30356137912e-18        
24 Cr                    51                       11028.7653256            11026.8490557            
24 Cr                    55                       530268.248599            73058.7222747            
25 Mn                    53                       8.63847643295e-13        8.63847643292e-13        
25 Mn                    56                       2151637.56897            2057379.66015            
26 Fe                    55                       1315.54934448            1315.54302626            
26 Fe                    59                       1345.46194131            1345.31639551            
26 Fe                    60                       4.18484419492e-27        4.1848441949e-27         
27 Co                    57                       0.00153330447573         0.00153327731547         
27 Co                    60                       3.14905608064e-31        3.25367478059e-31        
28 Ni                    59                       0.0665668768215          0.0665668768128          
28 Ni                    63                       3.46248588278            3.46248543188            
